                                                                       MOLECULAR VOLUME MIXING RATIOS BY LAYER
                                                                        molecular weights are in parentheses
           P(MB)     T(K)   H2O(18.0154)   CO2(44.0098)   O3(47.9982)    N2O(44.0128)   CO(28.0101)    CH4(16.0428)   O2(31.9988)    CCL4(153.8215) CFC11(137.370) CFC12(120.910)       
       1   974.59   293.50  0.1676034E-01  0.3600068E-03  0.7115035E-07  0.3199960E-06  0.1482845E-06  0.1699954E-05  0.2089977E+00  0.1105000E-09  0.2783000E-09  0.5027000E-09
       2   964.34   292.31  0.1492289E-01  0.3600025E-03  0.7115015E-07  0.3200040E-06  0.1478413E-06  0.1700017E-05  0.2089997E+00  0.1105000E-09  0.2783000E-09  0.5027000E-09
       3   943.41   290.41  0.1460786E-01  0.3600022E-03  0.7114981E-07  0.3200019E-06  0.1469003E-06  0.1700008E-05  0.2090011E+00  0.1105000E-09  0.2783000E-09  0.5027000E-09
       4   915.97   288.10  0.1400362E-01  0.3599990E-03  0.7112340E-07  0.3200012E-06  0.1456364E-06  0.1700001E-05  0.2090008E+00  0.1105000E-09  0.2783000E-09  0.5027000E-09
       5   876.19   284.94  0.1286109E-01  0.3600007E-03  0.6987270E-07  0.3200000E-06  0.1437352E-06  0.1700004E-05  0.2090009E+00  0.1105000E-09  0.2783000E-09  0.5027000E-09
       6   824.98   281.51  0.1177885E-01  0.3599988E-03  0.6775199E-07  0.3200004E-06  0.1411837E-06  0.1699999E-05  0.2089998E+00  0.1105000E-09  0.2783000E-09  0.5027000E-09
       7   776.33   279.49  0.7023859E-02  0.3599986E-03  0.6561305E-07  0.3199994E-06  0.1386087E-06  0.1699995E-05  0.2089996E+00  0.1105000E-09  0.2783000E-09  0.5027000E-09
       8   730.31   278.57  0.3591108E-02  0.3599997E-03  0.6372549E-07  0.3200004E-06  0.1360968E-06  0.1700001E-05  0.2090002E+00  0.1105000E-09  0.2783000E-09  0.5027000E-09
       9   686.78   276.85  0.3444200E-02  0.3600001E-03  0.6220094E-07  0.3200012E-06  0.1338220E-06  0.1700006E-05  0.2090006E+00  0.1105000E-09  0.2783000E-09  0.5027000E-09
      10   645.54   274.11  0.3665945E-02  0.3599993E-03  0.6104445E-07  0.3200000E-06  0.1319535E-06  0.1700003E-05  0.2090000E+00  0.1105000E-09  0.2783000E-09  0.5027000E-09
      11   606.44   271.05  0.3389361E-02  0.3600002E-03  0.6022877E-07  0.3200001E-06  0.1308696E-06  0.1700000E-05  0.2089999E+00  0.1105000E-09  0.2783000E-09  0.5027000E-09
      12   569.27   267.90  0.2856334E-02  0.3599999E-03  0.5989786E-07  0.3199996E-06  0.1304526E-06  0.1699998E-05  0.2089996E+00  0.1105000E-09  0.2783000E-09  0.5027000E-09
      13   533.88   264.59  0.2320145E-02  0.3600002E-03  0.5999384E-07  0.3199998E-06  0.1300494E-06  0.1700036E-05  0.2089998E+00  0.1105000E-09  0.2783000E-09  0.5027000E-09
      14   500.30   261.14  0.1854832E-02  0.3599995E-03  0.6074013E-07  0.3200001E-06  0.1293208E-06  0.1700047E-05  0.2089998E+00  0.1105000E-09  0.2783000E-09  0.5027000E-09
      15   468.55   257.50  0.1480145E-02  0.3599997E-03  0.6244213E-07  0.3199999E-06  0.1279789E-06  0.1699833E-05  0.2090002E+00  0.1105000E-09  0.2783000E-09  0.5027000E-09
      16   438.30   253.80  0.1133243E-02  0.3600001E-03  0.6435138E-07  0.3200003E-06  0.1259265E-06  0.1699337E-05  0.2090001E+00  0.1105000E-09  0.2783000E-09  0.5027000E-09
      17   409.39   250.07  0.8014398E-03  0.3599996E-03  0.6648925E-07  0.3200175E-06  0.1233579E-06  0.1698618E-05  0.2089998E+00  0.1105000E-09  0.2783000E-09  0.5027000E-09
      18   382.23   246.19  0.5532202E-03  0.3600000E-03  0.6889488E-07  0.3200224E-06  0.1202670E-06  0.1697629E-05  0.2090001E+00  0.1105000E-09  0.2783000E-09  0.5027000E-09
      19   356.52   242.14  0.3899974E-03  0.3600000E-03  0.7171946E-07  0.3199370E-06  0.1163956E-06  0.1696240E-05  0.2090000E+00  0.1105000E-09  0.2783000E-09  0.5027000E-09
      20   332.17   237.96  0.2921597E-03  0.3600003E-03  0.7505594E-07  0.3196932E-06  0.1118267E-06  0.1694259E-05  0.2090001E+00  0.1105000E-09  0.2783000E-09  0.5027000E-09
      21   309.12   233.73  0.2282282E-03  0.3600002E-03  0.7992275E-07  0.3192335E-06  0.1070117E-06  0.1691267E-05  0.2090001E+00  0.1105000E-09  0.2783000E-09  0.5027000E-09
      22   287.01   229.51  0.1758185E-03  0.3600004E-03  0.8736769E-07  0.3184464E-06  0.1021180E-06  0.1687252E-05  0.2090002E+00  0.1105000E-09  0.2783000E-09  0.5027000E-09
      23   256.74   223.55  0.1074636E-03  0.3599998E-03  0.1035944E-06  0.3161049E-06  0.9479450E-07  0.1680299E-05  0.2089999E+00  0.1105000E-09  0.2783000E-09  0.5027000E-09
      24   220.09   217.39  0.4770414E-04  0.3599999E-03  0.1460408E-06  0.3118324E-06  0.8419079E-07  0.1668926E-05  0.2089999E+00  0.1105000E-09  0.2783000E-09  0.5027000E-09
      25   187.97   214.17  0.2043373E-04  0.3600002E-03  0.2193953E-06  0.3072246E-06  0.7119090E-07  0.1653953E-05  0.2090000E+00  0.1105000E-09  0.2783000E-09  0.5027000E-09
      26   160.19   212.68  0.1166019E-04  0.3600003E-03  0.3049152E-06  0.3024465E-06  0.5702060E-07  0.1635912E-05  0.2090001E+00  0.1105000E-09  0.2783000E-09  0.5027000E-09
      27   136.33   211.13  0.7868952E-05  0.3600000E-03  0.3480274E-06  0.2972912E-06  0.4476768E-07  0.1615924E-05  0.2089999E+00  0.1105000E-09  0.2783000E-09  0.5027000E-09
      28   111.81   208.89  0.5597290E-05  0.3599999E-03  0.3852058E-06  0.2895280E-06  0.3315414E-07  0.1588297E-05  0.2090000E+00  0.1105000E-09  0.2783000E-09  0.5027000E-09
      29    87.43   207.73  0.4419311E-05  0.3600000E-03  0.5459505E-06  0.2758776E-06  0.2370626E-07  0.1546162E-05  0.2090000E+00  0.1105000E-09  0.2783000E-09  0.5027000E-09
      30    68.41   208.80  0.4109401E-05  0.3599999E-03  0.9899759E-06  0.2567769E-06  0.1668447E-07  0.1491380E-05  0.2090000E+00  0.1105000E-09  0.2783000E-09  0.5027000E-09
      31    53.67   211.81  0.4053710E-05  0.3599999E-03  0.1881546E-05  0.2327171E-06  0.1315776E-07  0.1408219E-05  0.2090000E+00  0.1105000E-09  0.2783000E-09  0.5027000E-09
      32    42.38   218.32  0.4049797E-05  0.3600000E-03  0.3058616E-05  0.2102262E-06  0.1247143E-07  0.1294425E-05  0.2090000E+00  0.1105000E-09  0.2783000E-09  0.5027000E-09
      33    33.59   219.82  0.4212047E-05  0.3600000E-03  0.4359714E-05  0.1942265E-06  0.1327980E-07  0.1175771E-05  0.2090000E+00  0.1105000E-09  0.2783000E-09  0.5027000E-09
      34    26.67   221.31  0.4380593E-05  0.3599999E-03  0.5581491E-05  0.1795170E-06  0.1461565E-07  0.1077028E-05  0.2090000E+00  0.1105000E-09  0.2783000E-09  0.5027000E-09
      35    21.21   222.78  0.4509806E-05  0.3599999E-03  0.6805432E-05  0.1664292E-06  0.1556746E-07  0.1015394E-05  0.2090000E+00  0.1105000E-09  0.2783000E-09  0.5027000E-09
      36    16.91   224.20  0.4594309E-05  0.3600000E-03  0.7911839E-05  0.1570426E-06  0.1611929E-07  0.9777265E-06  0.2090000E+00  0.1105000E-09  0.2783000E-09  0.5027000E-09
      37    13.49   225.69  0.4679570E-05  0.3600001E-03  0.8583008E-05  0.1471379E-06  0.1673640E-07  0.9367729E-06  0.2090000E+00  0.1105000E-09  0.2783000E-09  0.5027000E-09
      38    10.32   227.74  0.4763971E-05  0.3600000E-03  0.8970396E-05  0.1319583E-06  0.1761450E-07  0.8817704E-06  0.2090000E+00  0.1105000E-09  0.2783000E-09  0.5027000E-09
      39     7.60   231.31  0.4838691E-05  0.3600000E-03  0.9014773E-05  0.1122136E-06  0.1876924E-07  0.8145759E-06  0.2090000E+00  0.1105000E-09  0.2783000E-09  0.5027000E-09
      40     5.80   236.24  0.4895467E-05  0.3600001E-03  0.8548869E-05  0.9242072E-07  0.2009444E-07  0.7474213E-06  0.2090000E+00  0.1105000E-09  0.2783000E-09  0.5027000E-09
      41     4.46   241.55  0.4940150E-05  0.3600001E-03  0.7630983E-05  0.7230721E-07  0.2172727E-07  0.6791553E-06  0.2090001E+00  0.1105000E-09  0.2783000E-09  0.5027000E-09
      42     3.37   247.21  0.4991861E-05  0.3599999E-03  0.6332410E-05  0.5368457E-07  0.2376000E-07  0.6046438E-06  0.2089999E+00  0.1105000E-09  0.2783000E-09  0.5027000E-09
      43     2.54   253.03  0.5072809E-05  0.3600000E-03  0.5032695E-05  0.3775114E-07  0.2616617E-07  0.5237115E-06  0.2090000E+00  0.1105000E-09  0.2783000E-09  0.5027000E-09
      44     1.95   258.57  0.5161548E-05  0.3599999E-03  0.4034452E-05  0.2511650E-07  0.2898913E-07  0.4422671E-06  0.2090000E+00  0.1105000E-09  0.2783000E-09  0.5027000E-09
      45     1.51   264.17  0.5220057E-05  0.3600001E-03  0.3292829E-05  0.1628417E-07  0.3224433E-07  0.3646038E-06  0.2090001E+00  0.1105000E-09  0.2783000E-09  0.5027000E-09
      46     1.17   269.01  0.5244536E-05  0.3600001E-03  0.2726876E-05  0.1050928E-07  0.3621464E-07  0.2947482E-06  0.2090000E+00  0.1105000E-09  0.2783000E-09  0.5027000E-09
      47     0.91   270.88  0.5237176E-05  0.3600000E-03  0.2280440E-05  0.6428975E-08  0.4207030E-07  0.2361595E-06  0.2090000E+00  0.1105000E-09  0.2783000E-09  0.5027000E-09
      48     0.71   269.37  0.5209333E-05  0.3600000E-03  0.1916327E-05  0.3982352E-08  0.4924508E-07  0.1959871E-06  0.2090000E+00  0.1105000E-09  0.2783000E-09  0.5027000E-09
      49     0.55   265.78  0.5166315E-05  0.3600000E-03  0.1610419E-05  0.3093658E-08  0.5687154E-07  0.1750235E-06  0.2090000E+00  0.1105000E-09  0.2783000E-09  0.5027000E-09
      50     0.43   260.94  0.5094364E-05  0.3600000E-03  0.1356305E-05  0.2849589E-08  0.6646965E-07  0.1642489E-06  0.2090001E+00  0.1105000E-09  0.2783000E-09  0.5027000E-09
      51     0.33   255.58  0.4983669E-05  0.3600000E-03  0.1154309E-05  0.2568328E-08  0.7932829E-07  0.1568316E-06  0.2090001E+00  0.1105000E-09  0.2783000E-09  0.5027000E-09
      52     0.25   249.97  0.4835621E-05  0.3600000E-03  0.1001156E-05  0.2219818E-08  0.9657872E-07  0.1517427E-06  0.2090000E+00  0.1105000E-09  0.2783000E-09  0.5027000E-09
      53     0.17   241.94  0.4551507E-05  0.3599999E-03  0.8419091E-06  0.1840774E-08  0.1325449E-06  0.1497802E-06  0.2089999E+00  0.1105000E-09  0.2783000E-09  0.5027000E-09
      54     0.10   230.92  0.4072945E-05  0.3600000E-03  0.7094965E-06  0.1444000E-08  0.1991202E-06  0.1497387E-06  0.2090000E+00  0.1105000E-09  0.2783000E-09  0.5027000E-09
